,x,y,t,theta,rpms
0,939,354,0.03333333333333333,242.73868022285006,1.0689511103187002
1,939,355,0.06666666666666667,242.63645307260828,1.0689511103187
2,939,354,0.1,242.73868022285006,1.0689511103187004
3,938,354,0.13333333333333333,242.54132628848316,1.5117251577264845
4,939,353,0.16666666666666666,242.84020430770352,1.0689511103187004
5,939,354,0.19999999999999998,242.73868022285006,0.0
6,939,354,0.2333333333333333,242.73868022285006,1.0689511103186995
7,938,354,0.26666666666666666,242.54132628848316,2.1379022206374008
8,940,354,0.3,242.93673721030837,1.0689511103187004
9,939,354,0.3333333333333333,242.73868022285006,0.0
10,939,354,0.36666666666666664,242.73868022285006,0.0
11,939,354,0.39999999999999997,242.73868022285006,1.0689511103187004
12,938,354,0.4333333333333333,242.54132628848316,1.0689511103187004
13,939,354,0.4666666666666666,242.73868022285006,1.5117251577264845
14,938,353,0.49999999999999994,242.6433476641352,1.0689511103186986
15,939,353,0.5333333333333333,242.84020430770352,1.0689511103187004
16,939,354,0.5666666666666667,242.73868022285006,1.0689511103187004
17,938,354,0.6,242.54132628848316,2.3902473472964907
18,940,353,0.6333333333333333,243.03775740736756,1.5117251577264845
19,939,354,0.6666666666666666,242.73868022285006,0.0
20,939,354,0.7,242.73868022285006,1.0689511103187004
21,939,353,0.7333333333333333,242.84020430770352,1.5117251577264845
22,940,354,0.7666666666666666,242.93673721030837,0.0
23,940,354,0.7999999999999999,242.93673721030837,1.0689511103187004
24,940,353,0.8333333333333333,243.03775740736756,12.827413323824404
25,952,353,0.8666666666666666,245.4622715234222,59.49747695009766
26,1005,336,0.8999999999999999,258.111341960372,65.40723084710072
27,1065,324,0.9333333333333332,271.7691913060466,71.81887867266964
28,1132,329,0.9666666666666666,286.45058418427345,92.3328758856403
29,1213,359,0.9999999999999999,304.85445556610364,103.88643038528274
30,1287,422,1.0333333333333332,325.00797980144137,92.82041710171785
31,1329,498,1.0666666666666667,342.64597536373867,104.40758010527789
32,1347,594,1.1,2.1722468047780126,117.21964053402137
33,1328,702,1.1333333333333335,23.70696918188787,123.3330572549832
34,1264,798,1.166666666666667,46.0860458260064,114.83142312077813
35,1170,850,1.2000000000000004,67.06089946720829,120.37927326505368
36,1059,869,1.2333333333333338,89.59933674420785,121.33419155384557
37,949,841,1.2666666666666673,112.71441235316723,123.72618482901001
38,860,767,1.3000000000000007,136.95421595735968,123.3701109007809
39,806,665,1.3333333333333341,161.90813557660158,131.832488422947
40,797,542,1.3666666666666676,188.9613100478871,123.67076022499145
41,841,435,1.400000000000001,214.4183644790562,120.94746053130947
42,920,354,1.4333333333333345,239.10988838818355,132.52407343568453
43,1037,313,1.466666666666668,265.76360520094113,136.37403274623298
44,1163,333,1.5000000000000013,292.97694450318875,122.16479131207083
45,1257,398,1.5333333333333348,317.23117460803127,135.49139805706415
46,1328,503,1.5666666666666682,343.5532440074193,130.0874414126353
47,1341,624,1.6000000000000016,8.214817589879317,142.37931220925037
48,1295,749,1.633333333333335,34.89496363496204,134.04578728574805
49,1201,832,1.6666666666666685,59.95863607372087,134.35231429099434
50,1080,866,1.700000000000002,85.35366450880412,126.38058484215252
51,963,849,1.7333333333333354,109.46256560936365,128.06908705895856
52,868,776,1.7666666666666688,134.40006611974604,127.20518212792493
53,812,671,1.8000000000000023,160.24254027807137,142.9559760127551
54,798,538,1.8333333333333357,189.85647082136268,128.29194785304298
55,846,428,1.866666666666669,216.3008979153739,131.55483643449355
56,935,343,1.9000000000000024,243.05425157149523,133.8026220591722
57,1057,315,1.9333333333333358,270.0,132.7093224625366
58,1179,338,1.9666666666666692,296.4714307056375,138.09756184900147
59,1278,421,2.0000000000000027,323.7574033413816,135.81990337430545
60,1338,533,2.033333333333336,349.9106176845061,136.82991764735627
61,1337,661,2.066666666666669,15.56631782485681,147.96770168336303
62,1268,781,2.1000000000000023,43.17947566620438,131.2678927303778
63,1170,855,2.1333333333333355,67.43998959222654,138.5931288548939
64,1041,868,2.1666666666666687,93.21323224171937,133.53334531833636
65,923,827,2.200000000000002,118.7747246388218,136.08885394140762
66,835,735,2.233333333333335,145.60115486365214,143.0199062416827
67,790,609,2.2666666666666684,174.43817153435634,138.82378804966862
68,805,480,2.3000000000000016,202.23131518010257,133.618888789838
69,880,380,2.333333333333335,228.91413721861244,132.42056594259407
70,991,325,2.366666666666668,255.65066795705286,137.0927194324562
71,1119,317,2.4000000000000012,283.12040315297725,126.20868147218386
72,1225,369,2.4333333333333345,308.1335701975023,139.7426176194638
73,1308,470,2.4666666666666677,335.76276391196313,139.49300030499137
74,1338,597,2.500000000000001,2.8522355812925184,147.40676901825177
75,1292,727,2.533333333333334,31.498549148171094,133.06616683437844
76,1206,817,2.5666666666666673,57.51296701850919,139.65673414890662
77,1081,855,2.6000000000000005,84.95754893082909,129.70918994554088
78,961,837,2.6333333333333337,110.70422362934198,134.07988044768783
79,859,764,2.666666666666667,137.5682738885123,130.5390211022741
80,802,656,2.7,164.02493254320393,139.22652212539091
81,794,526,2.7333333333333334,192.22859073332566,134.81079799030022
82,850,413,2.7666666666666666,219.3947575335278,141.95735139531536
83,956,333,2.8,248.00129177726384,146.38777119562383
84,1091,310,2.833333333333333,277.09918416872557,154.83564036821303
85,1225,365,2.8666666666666663,307.61936364115917,158.9433610864147
86,1310,487,2.8999999999999995,339.2209187030081,160.8478409407117
87,1331,636,2.9333333333333327,10.947560625778351,167.33438663510023
88,1259,775,2.966666666666666,43.54610453489113,160.96856294159133
89,1129,851,2.999999999999999,74.96218409641779,165.8562992752484
90,974,844,3.0333333333333323,107.64106273344657,175.52294412040655
91,843,745,3.0666666666666655,142.87393813172565,175.45457567898902
92,789,590,3.0999999999999988,178.50380862917075,184.8821944660709
93,834,423,3.133333333333332,215.65901555957066,191.8193973293041
94,983,323,3.166666666666665,254.11283149723604,203.05007012091835
95,1172,342,3.1999999999999984,295.50946949202455,195.76986711430996
96,1301,472,3.2333333333333316,335.5383558779062,220.24543747790213
97,1305,678,3.266666666666665,20.960063411718977,216.36690096229512
98,1168,827,3.299999999999998,65.53835587790621,209.97476071225225
99,972,840,3.3333333333333313,108.301080422795,218.66517840924692
100,821,702,3.3666666666666645,153.24105521616866,210.49653246457032
101,802,506,3.3999999999999977,196.80225703114766,224.88150285415398
102,935,343,3.433333333333331,243.05425157149523,243.75835732356478
103,1163,339,3.466666666666664,293.4813906826077,240.23828995185502
104,1310,509,3.4999999999999973,343.6963235401564,263.51975643438556
105,1263,751,3.5333333333333306,39.19841311235302,246.70317093840663
106,1055,851,3.5666666666666638,90.42757250683343,233.57009826207616
107,855,763,3.599999999999997,138.29611597254632,246.97166376390203
108,791,541,3.63333333333333,188.9726266148964,236.93609408074704
109,910,354,3.6666666666666634,237.3027263252427,250.07516659046635
110,1143,333,3.6999999999999966,288.9832170592262,270.1719743107186
111,1305,527,3.73333333333333,347.2756443145776,253.60287807085456
112,1243,756,3.766666666666663,42.92612863242431,261.86029699031866
113,1014,843,3.7999999999999963,99.39083655639348,254.08228115172125
114,817,710,3.8333333333333295,152.11369886735088,240.13362753691223
115,800,486,3.8666666666666627,200.67810677227638,255.64251309735914
116,975,323,3.899999999999996,252.49552727315637,262.06966661858837
117,1216,368,3.933333333333329,306.4842175956499,270.9933376897178
118,1306,605,3.9666666666666623,5.049166467582836,263.58912541771883
119,1172,812,3.9999999999999956,63.33495629003528,257.6371764816849
120,931,809,4.033333333333329,119.14063373339434,249.2948918186005
121,789,624,4.066666666666662,171.30203944748075,245.82157165328084
122,849,402,4.099999999999995,221.02953993955666,261.86029699031866
123,1078,315,4.133333333333328,274.4804396497852,261.08023053811655
124,1276,458,4.166666666666662,330.2833015731474,298.0687320031906
125,1244,735,4.199999999999995,39.10539185296443,284.65628168095816
126,996,832,4.233333333333328,103.76521531200768,288.4207588361004
127,795,652,4.266666666666661,165.24567335010852,286.2734097558491
128,855,391,4.2999999999999945,223.5461045348911,318.4415943072565
129,1147,332,4.333333333333328,289.72609417551934,329.7536589532462
130,1298,601,4.366666666666661,4.271422017383884,320.82248582559555
131,1104,830,4.399999999999994,79.22636181222384,299.85745856950325
132,839,738,4.433333333333327,144.58682392322282,302.31668536980123
133,807,457,4.466666666666661,206.74810416292144,298.3446187390852
134,1043,308,4.499999999999994,267.08563996448567,326.2665740274325
135,1285,494,4.533333333333327,338.67676876990157,324.5811564314796
136,1183,780,4.56666666666666,57.397266301499144,287.4425237935402
137,915,802,4.599999999999993,122.95944894230558,306.5374572023348
138,780,549,4.633333333333327,186.99769260401442,305.7368362493491
139,954,322,4.66666666666666,248.46402240470746,328.6012046429878
140,1247,415,4.699999999999993,318.5165474963354,317.49467558049344
141,1250,712,4.733333333333326,33.75852123237354,297.9920514693971
142,993,820,4.7666666666666595,105.11182837778654,298.12048021370265
143,787,632,4.799999999999993,169.7138288172457,300.419005923819
144,865,362,4.833333333333326,229.01659763308186,318.6012325954401
145,1162,337,4.866666666666659,293.1142079833268,325.38984171217203
146,1286,615,4.899999999999992,7.954886449250637,319.0313197252491
147,1071,822,4.933333333333326,86.64759275289691,283.52807341999113
148,827,718,4.966666666666659,149.58891873287462,294.3111859618179
149,800,444,4.999999999999992,208.4070065102531,312.66774295117335
150,1060,310,5.033333333333325,270.6295986084103,335.8208206471524
151,1290,524,5.066666666666658,345.79030868800555,313.2883985788598
152,1176,794,5.099999999999992,60.57782577431101,295.0324429472416
153,900,795,5.133333333333325,126.52239149297009,301.32288927818166
154,782,539,5.166666666666658,189.09027692082233,299.8727008441605
155,961,323,5.199999999999991,249.73430252905248,345.3109197032179
156,1264,435,5.2333333333333245,324.4361478016632,324.8239734134772
157,1241,738,5.266666666666658,40.11049519329697,293.75935686033273
158,981,827,5.299999999999991,107.30052719194498,299.3368507914531
159,785,627,5.333333333333324,170.8111639226413,295.1176363357033
160,875,366,5.366666666666657,230.01311375503582,321.6264108225259
161,1175,343,5.399999999999991,296.18180753144327,327.5528545046117
162,1285,629,5.433333333333324,11.406552583972427,310.2021714593547
163,1071,825,5.466666666666657,86.68905848538856,287.07855780194717
164,826,715,5.49999999999999,150.25511870305775,295.80409450418654
165,806,439,5.5333333333333234,209.84311657061673,312.1666695976495
166,1067,308,5.566666666666657,272.0825652797309,320.48038530910776
167,1293,505,5.59999999999999,341.71084164999723,295.4523630752747
168,1208,768,5.633333333333323,50.77811906912666,270.0196741659049
169,960,816,5.666666666666656,112.60240204717519,270.94062571033373
170,790,628,5.6999999999999895,170.43331401028559,261.3339528822868
171,850,391,5.733333333333323,222.84703721089952,285.4559837075646
172,1106,315,5.766666666666656,280.3612769621872,296.39452627735
173,1297,516,5.799999999999989,344.40203841534003,284.294777536809
174,1215,769,5.833333333333322,49.65335158726839,244.32958262414328
175,995,831,5.866666666666656,104.03624346792651,247.355379317628
176,810,692,5.899999999999989,156.18834574902723,248.07957959274003
177,804,460,5.933333333333322,205.92744561214462,253.79204658504543
178,992,315,5.966666666666655,256.3668864110081,256.8086911298234
179,1223,381,5.9999999999999885,309.41275603579567,263.3288975052448
180,1300,615,6.033333333333322,7.501956828498919,252.64586562991698
181,1165,809,6.066666666666655,64.45797901158983,226.9224847878189
182,953,820,6.099999999999988,113.6927579918767,226.01428665203295
183,802,672,6.133333333333321,160.76001123750814,224.4899134228532
184,800,462,6.1666666666666545,205.2118592232983,230.6384333517297
185,957,314,6.199999999999988,249.60752303776903,241.4433793851622
186,1181,343,6.233333333333321,297.3238913013465,234.23692283705532
187,1300,527,6.266666666666654,347.0226046621826,230.75483048752002
188,1250,737,6.299999999999987,38.58732786326152,215.33462286936006
189,1074,835,6.333333333333321,86.14065592610677,213.49338205480672
190,882,780,6.366666666666654,131.6154820476902,199.8281091815865
191,787,619,6.399999999999987,172.4053566314086,247.1335441732819
192,848,396,6.43333333333332,221.82016988013575,215.12226125668488
193,1028,306,6.4666666666666535,264.0232976170829,216.36690096229512
194,1219,373,6.499999999999987,307.6476206401076,208.07511596818284
195,1312,544,6.53333333333332,351.30449712257524,223.92420925588254
196,1253,745,6.566666666666653,39.57477363157966,207.3682501512131
197,1085,842,6.599999999999986,83.8298249049704,198.74443154731395
198,903,804,6.6333333333333195,124.8700403169741,198.44811778903588
199,795,653,6.666666666666653,165.04136392627913,200.37630414429836
200,808,466,6.699999999999986,205.1678701497816,203.3396778623488
201,944,333,6.733333333333319,245.67703160283548,203.20195477855881
202,1134,327,6.766666666666652,286.74030175438486,192.00694922262917
203,1276,437,6.799999999999986,326.30993247402023,200.94575028544068
204,1319,620,6.833333333333319,8.038233197964416,205.26366519387906
205,1226,788,6.866666666666652,50.498162724981,195.7348435824331
206,1053,848,6.899999999999985,90.86477628229096,190.6512588722222
207,884,791,6.9333333333333185,129.75133941938054,189.37337063894742
208,793,639,6.966666666666652,168.02386755579664,188.05338413203432
209,811,464,6.999999999999985,205.814903802975,192.0842982082706
210,934,333,7.033333333333318,243.80281394153172,191.0404351216668
211,1112,317,7.066666666666651,281.68224637842053,181.18642488527715
212,1255,408,7.0999999999999845,318.52851617585674,186.95646271808815
213,1330,566,7.133333333333318,356.43673193709384,197.75595540896023
214,1273,742,7.166666666666651,36.35719741999549,185.7915754039571
215,1133,845,7.199999999999984,73.8238066383916,179.69828051172314
216,965,839,7.233333333333317,109.76716867679164,177.96029584092364
217,835,735,7.266666666666651,145.60115486365214,176.93320626684186
218,789,576,7.299999999999984,181.49619137082922,179.83811860622043
219,841,416,7.333333333333317,217.70933617955632,172.34329822677708
220,978,331,7.36666666666665,252.59420598138396,179.61241687035766
221,1146,334,7.3999999999999835,289.6683994277499,161.58496366416287
222,1271,419,7.433333333333317,322.5350637233281,170.7111911103679
223,1331,567,7.46666666666665,356.6580561427389,170.85169692550065
224,1292,722,7.499999999999983,30.603863152831025,166.35159915630808
225,1179,829,7.533333333333316,63.621579366487595,162.26241254766651
226,1030,858,7.5666666666666496,95.60743196069177,153.69494895262213
227,898,801,7.599999999999983,126.10543298192061,152.23079844387107
228,814,686,7.633333333333316,157.02945118574075,149.82485266457795
229,796,547,7.666666666666649,187.8533133019782,146.53600411407388
230,850,421,7.699999999999982,218.04704253182607,139.06639011838254
231,951,339,7.733333333333316,246.5186093173923,140.6676302467941
232,1080,313,7.766666666666649,274.86899697409257,128.49663840675163
233,1195,348,7.799999999999982,300.42290620769353,146.64513249015434
234,1291,446,7.833333333333315,329.6523033763257,136.9968343518651
235,1336,566,7.8666666666666485,356.51317022896285,138.65495019267433
236,1315,694,7.899999999999982,23.278949198002692,136.1979634042606
237,1240,797,7.933333333333315,49.46491770554354,127.16475318228909
238,1134,851,7.966666666666648,73.96993059493622,129.4137395040401
239,1013,855,7.999999999999981,99.18883607735876,118.19525404453088
240,912,810,8.033333333333315,122.56907792371226,121.02301728428719
241,835,727,8.066666666666649,147.03059609653792,129.14415947834502
242,795,613,8.099999999999982,173.46786331214753,120.65423120407033
243,809,501,8.133333333333315,198.29621839303442,120.81039347325031
244,867,404,8.166666666666648,223.29250140461505,122.16479131207164
245,961,339,8.199999999999982,248.5232090204596,117.21964053402215
246,1068,315,8.233333333333315,272.3503731645487,113.05137189293208
247,1171,339,8.266666666666648,295.04259817781696,115.35265348465012
248,1262,397,8.299999999999981,317.78200553725213,121.36244056083824
249,1321,494,8.333333333333314,341.3699471201327,123.71233100590173
250,1346,607,8.366666666666648,4.747233965082728,123.48583188195101
251,1314,718,8.39999999999998,27.712578971649464,123.31915926745694
252,1236,803,8.433333333333314,50.866944417635864,117.14650775751532
253,1139,854,8.466666666666647,73.16507589222573,114.42271586049125
254,1032,857,8.49999999999998,95.21328240475526,108.9491416914402
255,934,829,8.533333333333314,116.56505117707798,114.9805871885811
256,855,756,8.566666666666647,139.4220723110871,117.60891396924595
257,807,657,8.59999999999998,163.5112462941088,115.84688305506938
258,798,549,8.633333333333313,187.47868950814825,111.03207069256344
259,840,454,8.666666666666647,210.73021524592016,114.15777289194715
260,914,377,8.69999999999998,235.2325945782964,111.92893104833279
261,1006,327,8.733333333333313,258.7331146850575,103.5559318900717
262,1102,314,8.766666666666646,279.496858538691,105.48549078303604
263,1195,347,8.79999999999998,300.31678024760396,116.55979367960208
264,1276,420,8.833333333333313,323.33997606572353,123.04086985167697
265,1333,520,8.866666666666646,347.1419098270018,117.00498810721831
266,1343,629,8.899999999999979,9.137151014138738,121.10796228640548
267,1303,735,8.933333333333312,31.711345865238002,117.9533181171236
268,1227,815,8.966666666666645,53.76758124455296,114.25782354471144
269,1131,862,8.999999999999979,75.1453010703849,114.38276379367962
270,1024,863,9.033333333333312,96.72170911996022,113.55561780246362
271,926,822,9.066666666666645,118.72790326622305,111.13493533449973
272,851,750,9.099999999999978,140.96902286592962,116.18175826677798
273,804,652,9.133333333333312,164.74488129694225,113.43480320902026
274,799,546,9.166666666666645,188.16119067422667,109.97735585620832
275,836,450,9.199999999999978,211.03994768332407,111.8778755646527
276,909,375,9.233333333333311,234.56668598971441,111.92893104833279
277,1001,325,9.266666666666644,257.7536671403196,107.66200488146283
278,1101,313,9.299999999999978,279.25572774455225,105.48549078303604
279,1194,346,9.33333333333331,300.0304491972015,112.03097221370287
280,1272,416,9.366666666666644,322.1619337274998,117.3414272063863
281,1327,511,9.399999999999977,345.06858282186244,116.15716797330577
282,1339,619,9.43333333333331,7.27500495788928,114.33780103183041
283,1314,723,9.466666666666644,28.57921026654776,114.25782354471144
284,1242,802,9.499999999999977,49.81058619436567,103.82591775157829
285,1157,849,9.53333333333331,69.39675892658266,97.53263640850936
286,1067,864,9.566666666666643,87.96186439499263,87.69309029321067
287,986,851,9.599999999999977,104.83823174529357,76.6371599678196
288,920,823,9.63333333333331,119.71916506010848,74.83421269786328
289,870,774,9.666666666666643,134.39371808448266,68.29585445734602
290,829,725,9.699999999999976,148.08505993623214,42.67779777759198
291,814,688,9.73333333333331,156.6308868365179,3.85415803921825
292,812,685,9.766666666666643,157.39674252381712,5.34475555159352
293,809,681,9.799999999999976,158.43798652796852,1.068951110318704
294,809,680,9.833333333333309,158.6380892676907,1.5117251577264896
295,808,681,9.866666666666642,158.51667623677963,2.137902220637408
296,810,681,9.899999999999975,158.35874601410546,1.068951110318704
297,809,681,9.933333333333309,158.43798652796852,1.068951110318704
